 #calculated the component:  1  2  3
 #tolerence:    2.000000E-03
 #broadening:    2.000000E-03Ha
 #scissors shift:    0.000000E+00Ha
 #energy window:    3.982501E+01eV    1.463542E+00Ha
 # Energy      Tot-Im Chi(-2w,w,w)  Tot-Im Chi(-2w,w,w)
 # eV          *10^-7 esu        *10^-12 m/V SI units 
 # 
       0.008163   1.059290E+00   4.437145E+01
       0.016327   1.065307E+00   4.462349E+01
       0.024490   1.071388E+00   4.487821E+01
       0.032654   1.077534E+00   4.513565E+01
       0.040817   1.083746E+00   4.539586E+01
       0.048980   1.090026E+00   4.565889E+01
       0.057144   1.096373E+00   4.592478E+01
       0.065307   1.102790E+00   4.619358E+01
       0.073471   1.109278E+00   4.646533E+01
       0.081634   1.115837E+00   4.674008E+01
       0.089798   1.122470E+00   4.701789E+01
       0.097961   1.129176E+00   4.729881E+01
       0.106124   1.135958E+00   4.758288E+01
       0.114288   1.142816E+00   4.787016E+01
       0.122451   1.149752E+00   4.816072E+01
       0.130615   1.156768E+00   4.845459E+01
       0.138778   1.163865E+00   4.875185E+01
       0.146941   1.171043E+00   4.905254E+01
       0.155105   1.178305E+00   4.935674E+01
       0.163268   1.185652E+00   4.966450E+01
       0.171432   1.193086E+00   4.997588E+01
       0.179595   1.200608E+00   5.029096E+01
       0.187759   1.208220E+00   5.060979E+01
       0.195922   1.215923E+00   5.093245E+01
       0.204085   1.223719E+00   5.125901E+01
       0.212249   1.231609E+00   5.158953E+01
       0.220412   1.239597E+00   5.192410E+01
       0.228576   1.247682E+00   5.226279E+01
       0.236739   1.255868E+00   5.260567E+01
       0.244902   1.264156E+00   5.295283E+01
       0.253066   1.272548E+00   5.330435E+01
       0.261229   1.281045E+00   5.366031E+01
       0.269393   1.289652E+00   5.402080E+01
       0.277556   1.298368E+00   5.438590E+01
       0.285720   1.307197E+00   5.475572E+01
       0.293883   1.316140E+00   5.513034E+01
       0.302046   1.325200E+00   5.550986E+01
       0.310210   1.334380E+00   5.589438E+01
       0.318373   1.343682E+00   5.628400E+01
       0.326537   1.353107E+00   5.667883E+01
       0.334700   1.362660E+00   5.707897E+01
       0.342863   1.372342E+00   5.748454E+01
       0.351027   1.382157E+00   5.789565E+01
       0.359190   1.392107E+00   5.831242E+01
       0.367354   1.402194E+00   5.873498E+01
       0.375517   1.412423E+00   5.916344E+01
       0.383681   1.422796E+00   5.959794E+01
       0.391844   1.433316E+00   6.003860E+01
       0.400007   1.443987E+00   6.048558E+01
       0.408171   1.454812E+00   6.093901E+01
       0.416334   1.465794E+00   6.139904E+01
       0.424498   1.476938E+00   6.186581E+01
       0.432661   1.488246E+00   6.233950E+01
       0.440824   1.499723E+00   6.282025E+01
       0.448988   1.511373E+00   6.330824E+01
       0.457151   1.523200E+00   6.380364E+01
       0.465315   1.535208E+00   6.430663E+01
       0.473478   1.547401E+00   6.481740E+01
       0.481641   1.559785E+00   6.533613E+01
       0.489805   1.572364E+00   6.586303E+01
       0.497968   1.585143E+00   6.639830E+01
       0.506132   1.598126E+00   6.694216E+01
       0.514295   1.611320E+00   6.749483E+01
       0.522459   1.624730E+00   6.805653E+01
       0.530622   1.638361E+00   6.862752E+01
       0.538785   1.652220E+00   6.920803E+01
       0.546949   1.666312E+00   6.979833E+01
       0.555112   1.680645E+00   7.039868E+01
       0.563276   1.695224E+00   7.100937E+01
       0.571439   1.710056E+00   7.163068E+01
       0.579602   1.725150E+00   7.226291E+01
       0.587766   1.740512E+00   7.290639E+01
       0.595929   1.756150E+00   7.356143E+01
       0.604093   1.772072E+00   7.422839E+01
       0.612256   1.788288E+00   7.490762E+01
       0.620420   1.804805E+00   7.559950E+01
       0.628583   1.821634E+00   7.630441E+01
       0.636746   1.838783E+00   7.702276E+01
       0.644910   1.856264E+00   7.775499E+01
       0.653073   1.874086E+00   7.850153E+01
       0.661237   1.892262E+00   7.926286E+01
       0.669400   1.910802E+00   8.003948E+01
       0.677563   1.929719E+00   8.083188E+01
       0.685727   1.949026E+00   8.164062E+01
       0.693890   1.968737E+00   8.246627E+01
       0.702054   1.988866E+00   8.330942E+01
       0.710217   2.009428E+00   8.417071E+01
       0.718381   2.030438E+00   8.505080E+01
       0.726544   2.051914E+00   8.595038E+01
       0.734707   2.073873E+00   8.687021E+01
       0.742871   2.096334E+00   8.781105E+01
       0.751034   2.119317E+00   8.877374E+01
       0.759198   2.142842E+00   8.975915E+01
       0.767361   2.166931E+00   9.076819E+01
       0.775524   2.191608E+00   9.180187E+01
       0.783688   2.216898E+00   9.286121E+01
       0.791851   2.242827E+00   9.394732E+01
       0.800015   2.269423E+00   9.506138E+01
       0.808178   2.296717E+00   9.620465E+01
       0.816342   2.324740E+00   9.737847E+01
       0.824505   2.353526E+00   9.858425E+01
       0.832668   2.383111E+00   9.982354E+01
       0.840832   2.413536E+00   1.010980E+02
       0.848995   2.444841E+00   1.024093E+02
       0.857159   2.477072E+00   1.037593E+02
       0.865322   2.510276E+00   1.051502E+02
       0.873485   2.544505E+00   1.065840E+02
       0.881649   2.579816E+00   1.080631E+02
       0.889812   2.616269E+00   1.095900E+02
       0.897976   2.653929E+00   1.111675E+02
       0.906139   2.692866E+00   1.127985E+02
       0.914302   2.733156E+00   1.144862E+02
       0.922466   2.774883E+00   1.162340E+02
       0.930629   2.818137E+00   1.180458E+02
       0.938793   2.863015E+00   1.199257E+02
       0.946956   2.909624E+00   1.218781E+02
       0.955120   2.958081E+00   1.239078E+02
       0.963283   3.008512E+00   1.260203E+02
       0.971446   3.061056E+00   1.282212E+02
       0.979610   3.115865E+00   1.305170E+02
       0.987773   3.173104E+00   1.329147E+02
       0.995937   3.232956E+00   1.354217E+02
       1.004100   3.295616E+00   1.380465E+02
       1.012263   3.361302E+00   1.407979E+02
       1.020427   3.430249E+00   1.436859E+02
       1.028590   3.502709E+00   1.467211E+02
       1.036754   3.578955E+00   1.499149E+02
       1.044917   3.659279E+00   1.532795E+02
       1.053081   3.743985E+00   1.568277E+02
       1.061244   3.833382E+00   1.605723E+02
       1.069407   3.927775E+00   1.645262E+02
       1.077571   4.027442E+00   1.687011E+02
       1.085734   4.132602E+00   1.731060E+02
       1.093898   4.243356E+00   1.777453E+02
       1.102061   4.359609E+00   1.826149E+02
       1.110224   4.480931E+00   1.876968E+02
       1.118388   4.606350E+00   1.929503E+02
       1.126551   4.734035E+00   1.982988E+02
       1.134715   4.860803E+00   2.036088E+02
       1.142878   4.981395E+00   2.086602E+02
       1.151042   5.087435E+00   2.131020E+02
       1.159205   5.166045E+00   2.163948E+02
       1.167368   5.198260E+00   2.177442E+02
       1.175532   5.157847E+00   2.160514E+02
       1.183695   5.012025E+00   2.099432E+02
       1.191859   4.726806E+00   1.979960E+02
       1.200022   4.279763E+00   1.792703E+02
       1.208185   3.679017E+00   1.541063E+02
       1.216349   2.977589E+00   1.247250E+02
       1.224512   2.266010E+00   9.491839E+01
       1.232676   1.639439E+00   6.867267E+01
       1.240839   1.161289E+00   4.864397E+01
       1.249003   8.493326E-01   3.557676E+01
       1.257166   6.864618E-01   2.875444E+01
       1.265329   6.399734E-01   2.680714E+01
       1.273493   6.761621E-01   2.832301E+01
       1.281656   7.671755E-01   3.213537E+01
       1.289820   8.925241E-01   3.738596E+01
       1.297983   1.038162E+00   4.348641E+01
       1.306146   1.194914E+00   5.005243E+01
       1.314310   1.357022E+00   5.684279E+01
       1.322473   1.521017E+00   6.371220E+01
       1.330637   1.684923E+00   7.057787E+01
       1.338800   1.847708E+00   7.739660E+01
       1.346963   2.008916E+00   8.414926E+01
       1.355127   2.168408E+00   9.083008E+01
       1.363290   2.326179E+00   9.743874E+01
       1.371454   2.482190E+00   1.039737E+02
       1.379617   2.636222E+00   1.104258E+02
       1.387781   2.787675E+00   1.167699E+02
       1.395944   2.935328E+00   1.229547E+02
       1.404107   3.076985E+00   1.288885E+02
       1.412271   3.209019E+00   1.344191E+02
       1.420434   3.325799E+00   1.393108E+02
       1.428598   3.419165E+00   1.432217E+02
       1.436761   3.478327E+00   1.456998E+02
       1.444924   3.491017E+00   1.462314E+02
       1.453088   3.447017E+00   1.443883E+02
       1.461251   3.344431E+00   1.400912E+02
       1.469415   3.196272E+00   1.338851E+02
       1.477578   3.031453E+00   1.269812E+02
       1.485742   2.885955E+00   1.208866E+02
       1.493905   2.788747E+00   1.168147E+02
       1.502068   2.752914E+00   1.153138E+02
       1.510232   2.776616E+00   1.163066E+02
       1.518395   2.849667E+00   1.193666E+02
       1.526559   2.959815E+00   1.239804E+02
       1.534722   3.096282E+00   1.296967E+02
       1.542885   3.250924E+00   1.361744E+02
       1.551049   3.418143E+00   1.431789E+02
       1.559212   3.594358E+00   1.505601E+02
       1.567376   3.777448E+00   1.582294E+02
       1.575539   3.966295E+00   1.661398E+02
       1.583703   4.160461E+00   1.742730E+02
       1.591866   4.359960E+00   1.826296E+02
       1.600029   4.565106E+00   1.912227E+02
       1.608193   4.776419E+00   2.000742E+02
       1.616356   4.994561E+00   2.092117E+02
       1.624520   5.220287E+00   2.186669E+02
       1.632683   5.454410E+00   2.284738E+02
       1.640846   5.697771E+00   2.386677E+02
       1.649010   5.951194E+00   2.492830E+02
       1.657173   6.215431E+00   2.603514E+02
       1.665337   6.491077E+00   2.718976E+02
       1.673500   6.778435E+00   2.839344E+02
       1.681664   7.077310E+00   2.964537E+02
       1.689827   7.386686E+00   3.094128E+02
       1.697990   7.704225E+00   3.227138E+02
       1.706154   8.025497E+00   3.361712E+02
       1.714317   8.342830E+00   3.494636E+02
       1.722481   8.643613E+00   3.620628E+02
       1.730644   8.907976E+00   3.731364E+02
       1.738807   9.105897E+00   3.814269E+02
       1.746971   9.194456E+00   3.851365E+02
       1.755134   9.117221E+00   3.819013E+02
       1.763298   8.809927E+00   3.690294E+02
       1.771461   8.218217E+00   3.442439E+02
       1.779625   7.329668E+00   3.070244E+02
       1.787788   6.208070E+00   2.600430E+02
       1.795951   4.999870E+00   2.094341E+02
       1.804115   3.889983E+00   1.629432E+02
       1.812278   3.029246E+00   1.268888E+02
       1.820442   2.487239E+00   1.041852E+02
       1.828605   2.255899E+00   9.449488E+01
       1.836768   2.283066E+00   9.563286E+01
       1.844932   2.505200E+00   1.049376E+02
       1.853095   2.866013E+00   1.200513E+02
       1.861259   3.322708E+00   1.391813E+02
       1.869422   3.845551E+00   1.610821E+02
       1.877585   4.415083E+00   1.849386E+02
       1.885749   5.019071E+00   2.102384E+02
       1.893912   5.649898E+00   2.366624E+02
       1.902076   6.302454E+00   2.639966E+02
       1.910239   6.972350E+00   2.920571E+02
       1.918403   7.654157E+00   3.206166E+02
       1.926566   8.339337E+00   3.493173E+02
       1.934729   9.013456E+00   3.775548E+02
       1.942893   9.652212E+00   4.043109E+02
       1.951056   1.021608E+01   4.279303E+02
       1.959220   1.064450E+01   4.458756E+02
       1.967383   1.085289E+01   4.546049E+02
       1.975546   1.073884E+01   4.498274E+02
       1.983710   1.020167E+01   4.273267E+02
       1.991873   9.169735E+00   3.841010E+02
       2.000037   7.617409E+00   3.190773E+02
       2.008200   5.561147E+00   2.329448E+02
       2.016364   3.049855E+00   1.277520E+02
       2.024527   1.728925E-01   7.242105E+00
       2.032690  -2.918106E+00  -1.222333E+02
       2.040854  -6.002601E+00  -2.514364E+02
       2.049017  -8.825387E+00  -3.696769E+02
       2.057181  -1.116725E+01  -4.677727E+02
       2.065344  -1.291184E+01  -5.408498E+02
       2.073507  -1.406476E+01  -5.891435E+02
       2.081671  -1.471733E+01  -6.164781E+02
       2.089834  -1.498436E+01  -6.276634E+02
       2.097998  -1.495180E+01  -6.262995E+02
       2.106161  -1.465632E+01  -6.139225E+02
       2.114325  -1.410368E+01  -5.907736E+02
       2.122488  -1.331125E+01  -5.575802E+02
       2.130651  -1.233967E+01  -5.168829E+02
       2.138815  -1.128625E+01  -4.727574E+02
       2.146978  -1.024870E+01  -4.292967E+02
       2.155142  -9.293178E+00  -3.892717E+02
       2.163305  -8.447406E+00  -3.538441E+02
       2.171468  -7.713036E+00  -3.230829E+02
       2.179632  -7.081661E+00  -2.966359E+02
       2.187795  -6.545746E+00  -2.741876E+02
       2.195959  -6.103088E+00  -2.556455E+02
       2.204122  -5.755820E+00  -2.410992E+02
       2.212286  -5.504639E+00  -2.305778E+02
       2.220449  -5.339761E+00  -2.236714E+02
       2.228612  -5.233649E+00  -2.192266E+02
       2.236776  -5.143264E+00  -2.154405E+02
       2.244939  -5.024044E+00  -2.104467E+02
       2.253103  -4.846290E+00  -2.030009E+02
       2.261266  -4.602153E+00  -1.927745E+02
       2.269429  -4.301662E+00  -1.801876E+02
       2.277593  -3.964677E+00  -1.660720E+02
       2.285756  -3.614527E+00  -1.514050E+02
       2.293920  -3.274238E+00  -1.371509E+02
       2.302083  -2.963439E+00  -1.241322E+02
       2.310246  -2.694362E+00  -1.128612E+02
       2.318410  -2.468342E+00  -1.033937E+02
       2.326573  -2.277743E+00  -9.540986E+01
       2.334737  -2.116590E+00  -8.865953E+01
       2.342900  -1.995034E+00  -8.356781E+01
       2.351064  -1.947829E+00  -8.159047E+01
       2.359227  -2.031495E+00  -8.509505E+01
       2.367390  -2.310095E+00  -9.676503E+01
       2.375554  -2.830483E+00  -1.185630E+02
       2.383717  -3.592180E+00  -1.504689E+02
       2.391881  -4.529471E+00  -1.897300E+02
       2.400044  -5.527767E+00  -2.315466E+02
       2.408207  -6.471113E+00  -2.710613E+02
       2.416371  -7.283663E+00  -3.050974E+02
       2.424534  -7.934845E+00  -3.323740E+02
       2.432698  -8.418057E+00  -3.526147E+02
       2.440861  -8.732201E+00  -3.657736E+02
       2.449025  -8.879907E+00  -3.719607E+02
       2.457188  -8.873722E+00  -3.717016E+02
       2.465351  -8.736386E+00  -3.659489E+02
       2.473515  -8.493175E+00  -3.557613E+02
       2.481678  -8.164907E+00  -3.420108E+02
       2.489842  -7.768028E+00  -3.253864E+02
       2.498005  -7.319797E+00  -3.066109E+02
       2.506168  -6.843126E+00  -2.866442E+02
       2.514332  -6.369198E+00  -2.667923E+02
       2.522495  -5.939820E+00  -2.488066E+02
       2.530659  -5.611758E+00  -2.350648E+02
       2.538822  -5.463570E+00  -2.288575E+02
       2.546986  -5.603384E+00  -2.347140E+02
       2.555149  -6.173073E+00  -2.585771E+02
       2.563312  -7.339082E+00  -3.074188E+02
       2.571476  -9.254540E+00  -3.876533E+02
       2.579639  -1.198063E+01  -5.018434E+02
       2.587803  -1.538500E+01  -6.444454E+02
       2.595966  -1.908976E+01  -7.996301E+02
       2.604129  -2.255651E+01  -9.448448E+02
       2.612293  -2.529578E+01  -1.059587E+03
       2.620456  -2.705580E+01  -1.133311E+03
       2.628620  -2.786167E+01  -1.167067E+03
       2.636783  -2.792128E+01  -1.169564E+03
       2.644947  -2.750155E+01  -1.151982E+03
       2.653110  -2.684564E+01  -1.124507E+03
       2.661273  -2.613469E+01  -1.094727E+03
       2.669437  -2.547516E+01  -1.067101E+03
       2.677600  -2.490352E+01  -1.043156E+03
       2.685764  -2.440379E+01  -1.022224E+03
       2.693927  -2.392769E+01  -1.002281E+03
       2.702090  -2.340900E+01  -9.805538E+02
       2.710254  -2.277236E+01  -9.538865E+02
       2.718417  -2.194382E+01  -9.191807E+02
       2.726581  -2.087153E+01  -8.742645E+02
       2.734744  -1.955721E+01  -8.192106E+02
       2.742907  -1.808154E+01  -7.573978E+02
       2.751071  -1.659423E+01  -6.950976E+02
       2.759234  -1.526128E+01  -6.392630E+02
       2.767398  -1.420639E+01  -5.950759E+02
       2.775561  -1.349172E+01  -5.651399E+02
       2.783725  -1.313749E+01  -5.503017E+02
       2.791888  -1.314176E+01  -5.504807E+02
       2.800051  -1.347377E+01  -5.643880E+02
       2.808215  -1.405724E+01  -5.888281E+02
       2.816378  -1.477975E+01  -6.190927E+02
       2.824542  -1.553123E+01  -6.505706E+02
       2.832705  -1.623752E+01  -6.801556E+02
       2.840868  -1.686568E+01  -7.064678E+02
       2.849032  -1.740866E+01  -7.292122E+02
       2.857195  -1.786673E+01  -7.483999E+02
       2.865359  -1.823435E+01  -7.637988E+02
       2.873522  -1.849246E+01  -7.746105E+02
       2.881686  -1.860333E+01  -7.792543E+02
       2.889849  -1.850618E+01  -7.751850E+02
       2.898012  -1.811571E+01  -7.588291E+02
       2.906176  -1.733038E+01  -7.259333E+02
       2.914339  -1.605974E+01  -6.727088E+02
       2.922503  -1.427335E+01  -5.978808E+02
       2.930666  -1.205503E+01  -5.049598E+02
       2.938829  -9.623621E+00  -4.031133E+02
       2.946993  -7.282819E+00  -3.050620E+02
       2.955156  -5.311337E+00  -2.224808E+02
       2.963320  -3.865947E+00  -1.619364E+02
       2.971483  -2.961483E+00  -1.240503E+02
       2.979647  -2.517975E+00  -1.054727E+02
       2.987810  -2.421672E+00  -1.014388E+02
       2.995973  -2.565096E+00  -1.074465E+02
       3.004137  -2.862794E+00  -1.199164E+02
       3.012300  -3.252530E+00  -1.362417E+02
       3.020464  -3.690794E+00  -1.545996E+02
       3.028627  -4.147397E+00  -1.737258E+02
       3.036790  -4.600918E+00  -1.927228E+02
       3.044954  -5.035097E+00  -2.109096E+02
       3.053117  -5.435587E+00  -2.276853E+02
       3.061281  -5.786829E+00  -2.423981E+02
       3.069444  -6.070114E+00  -2.542643E+02
       3.077608  -6.265135E+00  -2.624334E+02
       3.085771  -6.357125E+00  -2.662866E+02
       3.093934  -6.348963E+00  -2.659448E+02
       3.102098  -6.271706E+00  -2.627086E+02
       3.110261  -6.182088E+00  -2.589547E+02
       3.118425  -6.142485E+00  -2.572958E+02
       3.126588  -6.196065E+00  -2.595402E+02
       3.134751  -6.355251E+00  -2.662081E+02
       3.142915  -6.606845E+00  -2.767469E+02
       3.151078  -6.923591E+00  -2.900147E+02
       3.159242  -7.272722E+00  -3.046391E+02
       3.167405  -7.619056E+00  -3.191463E+02
       3.175568  -7.924456E+00  -3.319389E+02
       3.183732  -8.146723E+00  -3.412491E+02
       3.191895  -8.241288E+00  -3.452103E+02
       3.200059  -8.169033E+00  -3.421836E+02
       3.208222  -7.910982E+00  -3.313745E+02
       3.216386  -7.483722E+00  -3.134774E+02
       3.224549  -6.942677E+00  -2.908142E+02
       3.232712  -6.365618E+00  -2.666424E+02
       3.240876  -5.825892E+00  -2.440344E+02
       3.249039  -5.373671E+00  -2.250918E+02
       3.257203  -5.032471E+00  -2.107997E+02
       3.265366  -4.802512E+00  -2.011671E+02
       3.273529  -4.661174E+00  -1.952468E+02
       3.281693  -4.562590E+00  -1.911173E+02
       3.289856  -4.444972E+00  -1.861905E+02
       3.298020  -4.248948E+00  -1.779795E+02
       3.306183  -3.941557E+00  -1.651035E+02
       3.314347  -3.533332E+00  -1.480039E+02
       3.322510  -3.076175E+00  -1.288545E+02
       3.330673  -2.644194E+00  -1.107597E+02
       3.338837  -2.312382E+00  -9.686085E+01
       3.347000  -2.140313E+00  -8.965321E+01
       3.355164  -2.158837E+00  -9.042914E+01
       3.363327  -2.363835E+00  -9.901610E+01
       3.371490  -2.723145E+00  -1.140668E+02
       3.379654  -3.191789E+00  -1.336973E+02
       3.387817  -3.724388E+00  -1.560068E+02
       3.395981  -4.279315E+00  -1.792515E+02
       3.404144  -4.816285E+00  -2.017441E+02
       3.412308  -5.291078E+00  -2.216321E+02
       3.420471  -5.650330E+00  -2.366805E+02
       3.428634  -5.829197E+00  -2.441728E+02
       3.436798  -5.755908E+00  -2.411029E+02
       3.444961  -5.367683E+00  -2.248410E+02
       3.453125  -4.637074E+00  -1.942373E+02
       3.461288  -3.593521E+00  -1.505251E+02
       3.469451  -2.313927E+00  -9.692555E+01
       3.477615  -8.747594E-01  -3.664184E+01
       3.485778   6.993039E-01   2.929238E+01
       3.493942   2.442133E+00   1.022958E+02
