 #calculated the component:  1  2  3
 #tolerence:    2.000000E-03
 #broadening:    2.000000E-03Ha
 #scissors shift:    0.000000E+00Ha
 #energy window:    3.982501E+01eV    1.463542E+00Ha
 # Energy      Tot-Im Chi(-2w,w,w)  Tot-Im Chi(-2w,w,w)
 # eV          *10^-7 esu        *10^-12 m/V SI units 
 # 
       0.008163   4.000074E-02   1.675547E+00
       0.016327   4.042650E-02   1.693381E+00
       0.024490   4.085909E-02   1.711501E+00
       0.032654   4.129864E-02   1.729914E+00
       0.040817   4.174533E-02   1.748624E+00
       0.048980   4.219930E-02   1.767640E+00
       0.057144   4.266073E-02   1.786968E+00
       0.065307   4.312977E-02   1.806616E+00
       0.073471   4.360661E-02   1.826590E+00
       0.081634   4.409143E-02   1.846898E+00
       0.089798   4.458441E-02   1.867547E+00
       0.097961   4.508574E-02   1.888547E+00
       0.106124   4.559562E-02   1.909905E+00
       0.114288   4.611426E-02   1.931629E+00
       0.122451   4.664185E-02   1.953729E+00
       0.130615   4.717862E-02   1.976213E+00
       0.138778   4.772479E-02   1.999091E+00
       0.146941   4.828059E-02   2.022373E+00
       0.155105   4.884626E-02   2.046067E+00
       0.163268   4.942204E-02   2.070185E+00
       0.171432   5.000818E-02   2.094738E+00
       0.179595   5.060495E-02   2.119735E+00
       0.187759   5.121262E-02   2.145189E+00
       0.195922   5.183147E-02   2.171111E+00
       0.204085   5.246178E-02   2.197514E+00
       0.212249   5.310386E-02   2.224409E+00
       0.220412   5.375801E-02   2.251810E+00
       0.228576   5.442455E-02   2.279730E+00
       0.236739   5.510382E-02   2.308183E+00
       0.244902   5.579616E-02   2.337184E+00
       0.253066   5.650192E-02   2.366747E+00
       0.261229   5.722148E-02   2.396888E+00
       0.269393   5.795521E-02   2.427622E+00
       0.277556   5.870351E-02   2.458967E+00
       0.285720   5.946679E-02   2.490939E+00
       0.293883   6.024548E-02   2.523557E+00
       0.302046   6.104002E-02   2.556839E+00
       0.310210   6.185088E-02   2.590803E+00
       0.318373   6.267852E-02   2.625472E+00
       0.326537   6.352344E-02   2.660864E+00
       0.334700   6.438617E-02   2.697002E+00
       0.342863   6.526723E-02   2.733907E+00
       0.351027   6.616719E-02   2.771605E+00
       0.359190   6.708663E-02   2.810118E+00
       0.367354   6.802615E-02   2.849473E+00
       0.375517   6.898638E-02   2.889695E+00
       0.383681   6.996798E-02   2.930812E+00
       0.391844   7.097164E-02   2.972853E+00
       0.400007   7.199807E-02   3.015848E+00
       0.408171   7.304802E-02   3.059828E+00
       0.416334   7.412227E-02   3.104826E+00
       0.424498   7.522162E-02   3.150876E+00
       0.432661   7.634694E-02   3.198013E+00
       0.440824   7.749912E-02   3.246275E+00
       0.448988   7.867907E-02   3.295701E+00
       0.457151   7.988779E-02   3.346332E+00
       0.465315   8.112629E-02   3.398210E+00
       0.473478   8.239564E-02   3.451380E+00
       0.481641   8.369696E-02   3.505890E+00
       0.489805   8.503144E-02   3.561789E+00
       0.497968   8.640031E-02   3.619128E+00
       0.506132   8.780487E-02   3.677962E+00
       0.514295   8.924648E-02   3.738348E+00
       0.522459   9.072658E-02   3.800346E+00
       0.530622   9.224669E-02   3.864020E+00
       0.538785   9.380840E-02   3.929437E+00
       0.546949   9.541339E-02   3.996667E+00
       0.555112   9.706343E-02   4.065783E+00
       0.563276   9.876039E-02   4.136866E+00
       0.571439   1.005062E-01   4.209996E+00
       0.579602   1.023031E-01   4.285262E+00
       0.587766   1.041531E-01   4.362756E+00
       0.595929   1.060587E-01   4.442576E+00
       0.604093   1.080223E-01   4.524827E+00
       0.612256   1.100465E-01   4.609618E+00
       0.620420   1.121342E-01   4.697066E+00
       0.628583   1.142883E-01   4.787296E+00
       0.636746   1.165119E-01   4.880440E+00
       0.644910   1.188085E-01   4.976638E+00
       0.653073   1.211815E-01   5.076040E+00
       0.661237   1.236349E-01   5.178808E+00
       0.669400   1.261727E-01   5.285110E+00
       0.677563   1.287992E-01   5.395130E+00
       0.685727   1.315192E-01   5.509064E+00
       0.693890   1.343376E-01   5.627119E+00
       0.702054   1.372597E-01   5.749522E+00
       0.710217   1.402914E-01   5.876512E+00
       0.718381   1.434388E-01   6.008349E+00
       0.726544   1.467085E-01   6.145312E+00
       0.734707   1.501078E-01   6.287702E+00
       0.742871   1.536444E-01   6.435841E+00
       0.751034   1.573266E-01   6.590082E+00
       0.759198   1.611636E-01   6.750804E+00
       0.767361   1.651650E-01   6.918417E+00
       0.775524   1.693417E-01   7.093369E+00
       0.783688   1.737051E-01   7.276144E+00
       0.791851   1.782680E-01   7.467271E+00
       0.800015   1.830439E-01   7.667327E+00
       0.808178   1.880481E-01   7.876941E+00
       0.816342   1.932969E-01   8.096803E+00
       0.824505   1.988085E-01   8.327669E+00
       0.832668   2.046025E-01   8.570370E+00
       0.840832   2.107009E-01   8.825820E+00
       0.848995   2.171278E-01   9.095028E+00
       0.857159   2.239098E-01   9.379111E+00
       0.865322   2.310763E-01   9.679303E+00
       0.873485   2.386602E-01   9.996977E+00
       0.881649   2.466980E-01   1.033366E+01
       0.889812   2.552302E-01   1.069106E+01
       0.897976   2.643026E-01   1.107108E+01
       0.906139   2.739660E-01   1.147586E+01
       0.914302   2.842780E-01   1.190781E+01
       0.922466   2.953035E-01   1.236964E+01
       0.930629   3.071156E-01   1.286443E+01
       0.938793   3.197977E-01   1.339566E+01
       0.946956   3.334446E-01   1.396730E+01
       0.955120   3.481646E-01   1.458388E+01
       0.963283   3.640817E-01   1.525062E+01
       0.971446   3.813391E-01   1.597349E+01
       0.979610   4.001017E-01   1.675942E+01
       0.987773   4.205612E-01   1.761642E+01
       0.995937   4.429405E-01   1.855385E+01
       1.004100   4.675008E-01   1.958263E+01
       1.012263   4.945488E-01   2.071561E+01
       1.020427   5.244464E-01   2.196796E+01
       1.028590   5.576232E-01   2.335767E+01
       1.036754   5.945914E-01   2.490619E+01
       1.044917   6.359645E-01   2.663922E+01
       1.053081   6.824816E-01   2.858772E+01
       1.061244   7.350374E-01   3.078917E+01
       1.069407   7.947203E-01   3.328916E+01
       1.077571   8.628612E-01   3.614345E+01
       1.085734   9.410944E-01   3.942047E+01
       1.093898   1.031434E+00   4.320459E+01
       1.102061   1.136366E+00   4.760000E+01
       1.110224   1.258966E+00   5.273543E+01
       1.118388   1.403019E+00   5.876951E+01
       1.126551   1.573153E+00   6.589607E+01
       1.134715   1.774930E+00   7.434809E+01
       1.142878   2.014827E+00   8.439686E+01
       1.151042   2.299942E+00   9.633976E+01
       1.159205   2.637138E+00   1.104642E+02
       1.167368   3.031112E+00   1.269669E+02
       1.175532   3.480741E+00   1.458009E+02
       1.183695   3.973180E+00   1.664282E+02
       1.191859   4.476459E+00   1.875095E+02
       1.200022   4.934517E+00   2.066966E+02
       1.208185   5.272698E+00   2.208623E+02
       1.216349   5.420413E+00   2.270497E+02
       1.224512   5.343826E+00   2.238416E+02
       1.232676   5.064693E+00   2.121494E+02
       1.240839   4.648092E+00   1.946988E+02
       1.249003   4.170512E+00   1.746940E+02
       1.257166   3.693505E+00   1.547132E+02
       1.265329   3.254542E+00   1.363259E+02
       1.273493   2.870389E+00   1.202346E+02
       1.281656   2.544455E+00   1.065819E+02
       1.289820   2.273195E+00   9.521938E+01
       1.297983   2.050271E+00   8.588156E+01
       1.306146   1.868817E+00   7.828084E+01
       1.314310   1.722508E+00   7.215226E+01
       1.322473   1.605963E+00   6.727042E+01
       1.330637   1.514824E+00   6.345282E+01
       1.338800   1.445705E+00   6.055754E+01
       1.346963   1.396086E+00   5.847913E+01
       1.355127   1.364225E+00   5.714451E+01
       1.363290   1.349070E+00   5.650972E+01
       1.371454   1.350216E+00   5.655770E+01
       1.379617   1.367863E+00   5.729691E+01
       1.387781   1.402800E+00   5.876037E+01
       1.395944   1.456366E+00   6.100410E+01
       1.404107   1.530347E+00   6.410302E+01
       1.412271   1.626736E+00   6.814055E+01
       1.420434   1.747178E+00   7.318563E+01
       1.428598   1.891899E+00   7.924770E+01
       1.436761   2.057863E+00   8.619958E+01
       1.444924   2.236193E+00   9.366942E+01
       1.453088   2.409737E+00   1.009388E+02
       1.461251   2.553197E+00   1.069481E+02
       1.469415   2.638865E+00   1.105365E+02
       1.477578   2.647888E+00   1.109145E+02
       1.485742   2.580198E+00   1.080791E+02
       1.493905   2.454540E+00   1.028155E+02
       1.502068   2.298553E+00   9.628154E+01
       1.510232   2.137496E+00   8.953521E+01
       1.518395   1.988476E+00   8.329307E+01
       1.526559   1.860300E+00   7.792407E+01
       1.534722   1.755899E+00   7.355091E+01
       1.542885   1.674898E+00   7.015795E+01
       1.551049   1.615453E+00   6.766793E+01
       1.559212   1.575315E+00   6.598665E+01
       1.567376   1.552366E+00   6.502534E+01
       1.575539   1.544842E+00   6.471018E+01
       1.583703   1.551410E+00   6.498531E+01
       1.591866   1.571170E+00   6.581301E+01
       1.600029   1.603633E+00   6.717281E+01
       1.608193   1.648701E+00   6.906063E+01
       1.616356   1.706656E+00   7.148823E+01
       1.624520   1.778161E+00   7.448342E+01
       1.632683   1.864281E+00   7.809081E+01
       1.640846   1.966525E+00   8.237359E+01
       1.649010   2.086906E+00   8.741611E+01
       1.657173   2.228033E+00   9.332762E+01
       1.665337   2.393227E+00   1.002473E+02
       1.673500   2.586678E+00   1.083505E+02
       1.681664   2.813633E+00   1.178572E+02
       1.689827   3.080621E+00   1.290408E+02
       1.697990   3.395695E+00   1.422385E+02
       1.706154   3.768645E+00   1.578606E+02
       1.714317   4.211075E+00   1.763931E+02
       1.722481   4.736120E+00   1.983861E+02
       1.730644   5.357365E+00   2.244088E+02
       1.738807   6.086212E+00   2.549387E+02
       1.746971   6.926537E+00   2.901381E+02
       1.755134   7.865415E+00   3.294657E+02
       1.763298   8.859958E+00   3.711251E+02
       1.771461   9.824685E+00   4.115355E+02
       1.779625   1.063158E+01   4.453344E+02
       1.787788   1.113876E+01   4.665793E+02
       1.795951   1.124811E+01   4.711595E+02
       1.804115   1.095746E+01   4.589848E+02
       1.812278   1.036258E+01   4.340668E+02
       1.820442   9.607057E+00   4.024194E+02
       1.828605   8.823729E+00   3.696075E+02
       1.836768   8.103994E+00   3.394593E+02
       1.844932   7.496492E+00   3.140123E+02
       1.853095   7.019509E+00   2.940325E+02
       1.861259   6.674449E+00   2.795787E+02
       1.869422   6.455565E+00   2.704101E+02
       1.877585   6.355742E+00   2.662287E+02
       1.885749   6.369550E+00   2.668071E+02
       1.893912   6.494758E+00   2.720518E+02
       1.902076   6.733092E+00   2.820351E+02
       1.910239   7.090721E+00   2.970154E+02
       1.918403   7.578665E+00   3.174544E+02
       1.926566   8.213193E+00   3.440334E+02
       1.934729   9.015999E+00   3.776613E+02
       1.942893   1.001359E+01   4.194483E+02
       1.951056   1.123464E+01   4.705956E+02
       1.959220   1.270323E+01   5.321117E+02
       1.967383   1.442610E+01   6.042792E+02
       1.975546   1.637550E+01   6.859355E+02
       1.983710   1.847618E+01   7.739282E+02
       1.991873   2.060883E+01   8.632607E+02
       2.000037   2.263180E+01   9.479986E+02
       2.008200   2.440245E+01   1.022167E+03
       2.016364   2.578020E+01   1.079878E+03
       2.024527   2.662195E+01   1.115138E+03
       2.032690   2.679727E+01   1.122481E+03
       2.040854   2.623179E+01   1.098795E+03
       2.049017   2.495610E+01   1.045359E+03
       2.057181   2.312016E+01   9.684549E+02
       2.065344   2.095094E+01   8.775910E+02
       2.073507   1.867532E+01   7.822700E+02
       2.081671   1.645534E+01   6.892796E+02
       2.089834   1.436738E+01   6.018194E+02
       2.097998   1.242447E+01   5.204351E+02
       2.106161   1.062238E+01   4.449493E+02
       2.114325   8.981999E+00   3.762371E+02
       2.122488   7.559959E+00   3.166708E+02
       2.130651   6.419937E+00   2.689177E+02
       2.138815   5.591140E+00   2.342011E+02
       2.146978   5.051024E+00   2.115768E+02
       2.155142   4.741759E+00   1.986223E+02
       2.163305   4.599261E+00   1.926534E+02
       2.171468   4.572484E+00   1.915318E+02
       2.179632   4.627848E+00   1.938509E+02
       2.187795   4.744580E+00   1.987405E+02
       2.195959   4.907027E+00   2.055451E+02
       2.204122   5.097207E+00   2.135113E+02
       2.212286   5.289801E+00   2.215787E+02
       2.220449   5.452803E+00   2.284065E+02
       2.228612   5.556469E+00   2.327488E+02
       2.236776   5.587504E+00   2.340488E+02
       2.244939   5.557872E+00   2.328076E+02
       2.253103   5.499975E+00   2.303824E+02
       2.261266   5.452586E+00   2.283974E+02
       2.269429   5.448583E+00   2.282297E+02
       2.277593   5.509890E+00   2.307977E+02
       2.285756   5.647554E+00   2.365642E+02
       2.293920   5.863138E+00   2.455946E+02
       2.302083   6.149831E+00   2.576035E+02
       2.310246   6.494637E+00   2.720467E+02
       2.318410   6.884302E+00   2.883690E+02
       2.326573   7.314778E+00   3.064007E+02
       2.334737   7.797806E+00   3.266338E+02
       2.342900   8.356912E+00   3.500535E+02
       2.351064   9.012820E+00   3.775281E+02
       2.359227   9.765227E+00   4.090449E+02
       2.367390   1.057750E+01   4.430693E+02
       2.375554   1.137048E+01   4.762855E+02
       2.383717   1.203493E+01   5.041179E+02
       2.391881   1.246826E+01   5.222691E+02
       2.400044   1.261948E+01   5.286035E+02
       2.408207   1.250724E+01   5.239019E+02
       2.416371   1.219544E+01   5.108414E+02
       2.424534   1.175334E+01   4.923229E+02
       2.432698   1.123490E+01   4.706065E+02
       2.440861   1.068285E+01   4.474822E+02
       2.449025   1.013877E+01   4.246917E+02
       2.457188   9.643520E+00   4.039468E+02
       2.465351   9.230052E+00   3.866275E+02
       2.473515   8.919818E+00   3.736324E+02
       2.481678   8.727536E+00   3.655782E+02
       2.489842   8.668829E+00   3.631191E+02
       2.498005   8.764007E+00   3.671058E+02
       2.506168   9.037261E+00   3.785519E+02
       2.514332   9.514708E+00   3.985511E+02
       2.522495   1.022324E+01   4.282299E+02
       2.530659   1.118904E+01   4.686855E+02
       2.538822   1.243305E+01   5.207942E+02
       2.546986   1.395975E+01   5.847448E+02
       2.555149   1.573596E+01   6.591465E+02
       2.563312   1.765788E+01   7.396517E+02
       2.571476   1.951421E+01   8.174093E+02
       2.579639   2.097209E+01   8.784767E+02
       2.587803   2.163168E+01   9.061055E+02
       2.595966   2.117325E+01   8.869028E+02
       2.604129   1.953151E+01   8.181339E+02
       2.612293   1.695774E+01   7.103240E+02
       2.620456   1.390381E+01   5.824015E+02
       2.628620   1.082355E+01   4.533760E+02
       2.636783   8.033486E+00   3.365059E+02
       2.644947   5.681857E+00   2.380011E+02
       2.653110   3.783131E+00   1.584674E+02
       2.661273   2.266086E+00   9.492157E+01
       2.669437   1.017687E+00   4.262879E+01
       2.677600  -7.954943E-02  -3.332159E+00
       2.685764  -1.122286E+00  -4.701021E+01
       2.693927  -2.175874E+00  -9.114278E+01
       2.702090  -3.272634E+00  -1.370838E+02
       2.710254  -4.409929E+00  -1.847227E+02
       2.718417  -5.543983E+00  -2.322258E+02
       2.726581  -6.584596E+00  -2.758149E+02
       2.734744  -7.404900E+00  -3.101757E+02
       2.742907  -7.879118E+00  -3.300397E+02
       2.751071  -7.938180E+00  -3.325137E+02
       2.759234  -7.603427E+00  -3.184916E+02
       2.767398  -6.968637E+00  -2.919016E+02
       2.775561  -6.151729E+00  -2.576830E+02
       2.783725  -5.263367E+00  -2.204714E+02
       2.791888  -4.409204E+00  -1.846923E+02
       2.800051  -3.698950E+00  -1.549413E+02
       2.808215  -3.230238E+00  -1.353079E+02
       2.816378  -3.054756E+00  -1.279573E+02
       2.824542  -3.164511E+00  -1.325547E+02
       2.832705  -3.512990E+00  -1.471518E+02
       2.840868  -4.048556E+00  -1.695855E+02
       2.849032  -4.735693E+00  -1.983682E+02
       2.857195  -5.559790E+00  -2.328879E+02
       2.865359  -6.522728E+00  -2.732234E+02
       2.873522  -7.635799E+00  -3.198476E+02
       2.881686  -8.911985E+00  -3.733044E+02
       2.889849  -1.035594E+01  -4.337886E+02
       2.898012  -1.194831E+01  -5.004895E+02
       2.906176  -1.362362E+01  -5.706647E+02
       2.914339  -1.524897E+01  -6.387474E+02
       2.922503  -1.662155E+01  -6.962419E+02
       2.930666  -1.750667E+01  -7.333178E+02
       2.938829  -1.772034E+01  -7.422678E+02
       2.946993  -1.721856E+01  -7.212493E+02
       2.955156  -1.612667E+01  -6.755124E+02
       2.963320  -1.467869E+01  -6.148597E+02
       2.971483  -1.311579E+01  -5.493928E+02
       2.979647  -1.161622E+01  -4.865791E+02
       2.987810  -1.028005E+01  -4.306096E+02
       2.995973  -9.146722E+00  -3.831370E+02
       3.004137  -8.219573E+00  -3.443007E+02
       3.012300  -7.484620E+00  -3.135150E+02
       3.020464  -6.921857E+00  -2.899421E+02
       3.028627  -6.510916E+00  -2.727286E+02
       3.036790  -6.233498E+00  -2.611082E+02
       3.044954  -6.074236E+00  -2.544370E+02
       3.053117  -6.020566E+00  -2.521889E+02
       3.061281  -6.061074E+00  -2.538857E+02
       3.069444  -6.181506E+00  -2.589303E+02
       3.077608  -6.358923E+00  -2.663620E+02
       3.085771  -6.556905E+00  -2.746550E+02
       3.093934  -6.727193E+00  -2.817880E+02
       3.102098  -6.822718E+00  -2.857894E+02
       3.110261  -6.818816E+00  -2.856259E+02
       3.118425  -6.727651E+00  -2.818072E+02
       3.126588  -6.592687E+00  -2.761538E+02
       3.134751  -6.468510E+00  -2.709523E+02
       3.142915  -6.402731E+00  -2.681970E+02
       3.151078  -6.428874E+00  -2.692920E+02
       3.159242  -6.567577E+00  -2.751020E+02
       3.167405  -6.829934E+00  -2.860916E+02
       3.175568  -7.218871E+00  -3.023834E+02
       3.183732  -7.726930E+00  -3.236649E+02
       3.191895  -8.330794E+00  -3.489595E+02
       3.200059  -8.985366E+00  -3.763781E+02
       3.208222  -9.623726E+00  -4.031177E+02
       3.216386  -1.016990E+01  -4.259960E+02
       3.224549  -1.056339E+01  -4.424780E+02
       3.232712  -1.078098E+01  -4.515928E+02
       3.240876  -1.084045E+01  -4.540839E+02
       3.249039  -1.078648E+01  -4.518230E+02
       3.257203  -1.067375E+01  -4.471011E+02
       3.265366  -1.055766E+01  -4.422384E+02
       3.273529  -1.048884E+01  -4.393556E+02
       3.281693  -1.050314E+01  -4.399543E+02
       3.289856  -1.060768E+01  -4.443335E+02
       3.298020  -1.077187E+01  -4.512111E+02
       3.306183  -1.093229E+01  -4.579309E+02
       3.314347  -1.101447E+01  -4.613732E+02
       3.322510  -1.096148E+01  -4.591535E+02
       3.330673  -1.075214E+01  -4.503846E+02
       3.338837  -1.040344E+01  -4.357783E+02
       3.347000  -9.964999E+00  -4.174129E+02
       3.355164  -9.508108E+00  -3.982747E+02
       3.363327  -9.107655E+00  -3.815006E+02
       3.371490  -8.824124E+00  -3.696240E+02
       3.379654  -8.696275E+00  -3.642687E+02
       3.387817  -8.745268E+00  -3.663209E+02
       3.395981  -8.982913E+00  -3.762754E+02
       3.404144  -9.417691E+00  -3.944873E+02
       3.412308  -1.005616E+01  -4.212313E+02
       3.420471  -1.089937E+01  -4.565516E+02
       3.428634  -1.193442E+01  -4.999079E+02
       3.436798  -1.312242E+01  -5.496708E+02
       3.444961  -1.438844E+01  -6.027017E+02
       3.453125  -1.562531E+01  -6.545113E+02
       3.461288  -1.672212E+01  -7.004545E+02
       3.469451  -1.760825E+01  -7.375725E+02
       3.477615  -1.827580E+01  -7.655351E+02
       3.485778  -1.875052E+01  -7.854199E+02
       3.493942  -1.902780E+01  -7.970348E+02
